-3028,-3880,-4342,-3055,-3631,-2025,-1851,-341,-642,-2830,-1747,-2377,-1600,-718,-3409,-3759,-2599,-3585,-1113,-1497,-1768,-1381,-925,-1621,-4097,-2323,-4045,-5225,-4525,-1114,-1708,-1338,-117,-2720,-2881,-1699,-1269,-2144,-2025,-806,-5517,-2876,277,154,-1627,-1471,-1917,-1332,-2495,-371,-4872,-6489,-2953,-3694,-4678,-882,2925,-3367,-2405,369,-879,-5165,-2905,-5286,-4944,-4161,-3709,-2673,29,-856,-1939,-2599,-1365,-1887,-3387,-6109,-3114,-3117,-921,-1081,-363,-322,-2015,-1193,-1811,-1423,-4019,-3929,-2706,-2692,-4993,-2345,1655,-345,535,-681,-1859,-4881,-4681,-3689,-3819,-2882,-1682,-563,-1001,-857,571,-1473,-1335,-2214,-4044,-2289,-2855,-2869,-3691,-2941,-125,-505,-274,-2394,-2862,-2021,-2459,-4123,-3845,-2029,-1301,-2309,-1153,-909,-1706,-2633,-1361,-1654,-3239,-3759,-3345,-4270,-3824,-1655,-1353,-667,-615,-1268,-2252,-1641,-2938,-2777,-2699,-1528,-1840,-2656,-824,-958,-1400,-2204,-1570,-3131,-3576,-3755,-2549,-2865,-2741,-1614,-175,-61,-1485,-1888,-2183,-1657,-982,-3476,-4362,-3323,-1805,-1173,-2091,-1821,71,-1592,315,-1325,-4385,-3580,-3177,-3294,-2641,-2206,59,-273,-490,-2490,-3672,-3385,-2918,-2465,-3508,-1291,-3856,-1886,-553,-467,-809,-1950,-2111,-2669,-2368,-3223,-4718,-2691,-2419,-1944,-1399,-1387,-513,-2365,-2603,-2347,-2495,-3072,-4165,-2337,-1476,-1103,403,-813,-1755,-1272,-3220,-2823,-2565,-2715,-4958,-2524,-2529,-1573,-1912,-1030,-858,-995,-1615,-3401,-3334,-4635,-4470,-2991,-100,101,-195,55,-902,-357,-1653,-3299,-4083,-4369,-4319,-1596,-2053,-1805,-1251,-1652,-2931,-1593,-758,-1554,-2623,-2971,-2765,-1610,-2337,771,-1083,-1064,-501,-950,-3879,-3739,-2838,-3032,-2589,-1877,-2137,-2787,-196,-681,1462,-1050,-3292,-3171,-2741,-1823,-1981,-2795,-2089,-1131,-1857,-389,-815,-1444,-2364,-3259,-2790,-3881,-4378,-3753,-1775,-857,-1202,-1734,-121,-1298,-2909,-2298,-3437,-2257,-4475,-3051,-1917,-1137,-918,-613,-461,-1119,-3362,-2367,-2685,-3433,-3096,-2486,-1369,-863,-1025,-1163,-1351,-2341,-1443,-2450,-3097,-3066,-3113,-3352,-3055,-1709,-380,-933,-1628,-1669,-2169,-2825,-4856,-3358,-2741,-2149,-2364,-1711,-1497,-569,-1607,-1630,-1485,-1959,-2747,-2652,-3648,-2759,-2589,-1435,-1609,-2004,-835,-1599,-2674,-1093,-4058,-5153,-2660,-824,-1233,-1884,-547,-1263,-2665,-2268,-3001,-2527,-2343,-2307,-2989,-3646,-3117,-1474,990,926,139,-2725,-4203,-2905,-2770,-2905,-3385,-2450,-3576,-1241,-1367,-1539,-927,-1865,-2465,-2713,-2135,-2105,-3840,-3111,-2475,-1217,-726,-585,-164,-692,-1573,-2859,-3697,-4233,-4487,-3684,-2395,-1718,-1241,-385,-737,-1430,-2377,-2860,-3241,-3177,-2963,-3475,-2991,-131,265,-1854,-948,-2979,-1577,-2175,-3009,-2559,-2401,-3325,-2509,-1896,-1311,-2569,-757,-1257,-1633,-1417,-2839,-3326,-3057,-2819,-2225,-1317,-1423,-166,-581,-1765,-2938,-3101,-2857,-1727,-3217,-1375,-2726,-2525,-1401,-1377,-2337,-2539,-2081,-1937,-2583,-2361,-3004,-2312,-3355,-2103,-1433,-783,-1514,-2917,-2532,-2171,-2422,-2969,-2947,-2257,-2592,-2340,-1363,-858,355,-1291,-2041,-3877,-3111,-3488,-3773,-1561
-8631,-8413,-7712,-7777,-8247,-7428,-8769,-7764,-7659,-8248,-8233,-8409,-8381,-8057,-8203,-8474,-8321,-7977,-7997,-8169,-8485,-8340,-8293,-8103,-8091,-7876,-8983,-7702,-7747,-8039,-8427,-8749,-8011,-8198,-8313,-8621,-7849,-8078,-7751,-8283,-7941,-8884,-8310,-8185,-8151,-8237,-7877,-8215,-7774,-8237,-7607,-8285,-8217,-7951,-8399,-8147,-7833,-8073,-8241,-8404,-8407,-8147,-7737,-8125,-7919,-7934,-8841,-8430,-7847,-8295,-8195,-8545,-7955,-7740,-7549,-8753,-7784,-8303,-8650,-7856,-7645,-7829,-9193,-8821,-8526,-8212,-8297,-8233,-8185,-8111,-8645,-7695,-7329,-7509,-8668,-8205,-7563,-8512,-8093,-7681,-8177,-8246,-8595,-8423,-7798,-7831,-8213,-8326,-8252,-7961,-8791,-7801,-7586,-8184,-7851,-7540,-8043,-8285,-8769,-8789,-8034,-8103,-7809,-8201,-8341,-8227,-8249,-8395,-7815,-7772,-7545,-8540,-8623,-7860,-8157,-8151,-8231,-7927,-8292,-8905,-8522,-8265,-7389,-8655,-8287,-8479,-7811,-8464,-7755,-8161,-7697,-7859,-7549,-8137,-8352,-8621,-7837,-8119,-8341,-8380,-8025,-7952,-8055,-8067,-8097,-8129,-7469,-7751,-7621,-8614,-7928,-8238,-7778,-8391,-9113,-8128,-8138,-8376,-8160,-8493,-8010,-8299,-8114,-8483,-8409,-8381,-7601,-7979,-7815,-8121,-8015,-8201,-8583,-8813,-8313,-8183,-7997,-7473,-8474,-7991,-7860,-7937,-7849,-7454,-8111,-8547,-8099,-9796,-9211,-7707,-7380,-7639,-7879,-7843,-8713,-8250,-7725,-8054,-8783,-8144,-8121,-8044,-8624,-7129,-7254,-7970,-8146,-9033,-8057,-7922,-8350,-8766,-8112,-8792,-8373,-8011,-7972,-7886,-7821,-7486,-7986,-7450,-9265,-8633,-8195,-8285,-7519,-6947,-8485,-8449,-8724,-7035,-7671,-8830,-9331,-9009,-7963,-7863,-7765,-8013,-7738,-8009,-8219,-8435,-8123,-8971,-8233,-7535,-9093,-7491,-8227,-7871,-7851,-7301,-7342,-7762,-8305,-8164,-8859,-8683,-8077,-8351,-8111,-8666,-7943,-7856,-7392,-8422,-8607,-8217,-8898,-8297,-7898,-8211,-7919,-8240,-7833,-7547,-8157,-8182,-7913,-8201,-8538,-8819,-8297,-7996,-7861,-8064,-7603,-7706,-7360,-8171,-8386,-8729,-8601,-7896,-8965,-8103,-8293,-7981,-7805,-7643,-7743,-9168,-9049,-7386,-8249,-8303,-7896,-7637,-8915,-8906,-7722,-7163,-7343,-8635,-8547,-8233,-7710,-8146,-8771,-8555,-8386,-8191,-7439,-8375,-8164,-7820,-8531,-8246,-8439,-8701,-8017,-7769,-8452,-8108,-8366,-8073,-7909,-8055,-8495,-8280,-8167,-8201,-8030,-7815,-8583,-8281,-7800,-7645,-7793,-7839,-8585,-8055,-8277,-8207,-8541,-8299,-7846,-8399,-7993,-8329,-7950,-8090,-8718,-8473,-8157,-7572,-7731,-8559,-8466,-8121,-7976,-7501,-7933,-8315,-7753,-8033,-8435,-8055,-7787,-7767,-8451,-7979,-8998,-8197,-7633,-8129,-8471,-8233,-7905,-7691,-7708,-8084,-8522,-8176,-8529,-8050,-7165,-7504,-8369,-8636,-8681,-7903,-8388,-8328,-7935,-7759,-8258,-7836,-8253,-8263,-8525,-8329,-8181,-8364,-8166,-8999,-8577,-8155,-8549,-8404,-7437,-7555,-8702,-8706,-8493,-8118,-7676,-8363,-8351,-7944,-7866,-8123,-7973,-8707,-8314,-8030,-7927,-8409,-7863,-8685,-8372,-7953,-7944,-7427,-8004,-8726,-8657,-8418,-8082,-7979,-7907,-8345,-8330,-8180,-7758,-7943,-8145,-8173,-8559,-7961,-8529,-8067,-7802,-8047,-8253,-7757,-7557,-7914,-9239,-8187,-8124,-8718,-9199,-7283,-7861,-7967,-8589,-8297,-8370,-7899,-8540,-8713,-8308,-8292,-8025,-8657,-7349,-7533
3988,4663,7250,6269,5040,3646,2519,5275,310,1000,1410,3960,4220,4617,7244,4815,5407,4195,2551,4621,558,324,1731,2492,4727,6807,7022,4974,6354,5215,3039,1991,-684,267,1326,4793,4579,4935,7581,5363,6376,5573,2302,2405,701,859,604,3225,4263,4885,6721,7077,6704,3659,2922,2855,-55,-435,-572,2170,2788,4679,7943,5817,5029,3741,1789,1845,-5,-450,279,3449,3816,3049,8639,7798,4948,3676,3045,2985,1062,2119,391,3262,5823,4727,7449,5994,4651,2743,2018,3867,334,1531,1595,2865,4193,5421,7880,4974,4397,2715,1648,1007,1159,2532,2159,4130,4666,5404,7185,6315,5782,2092,800,2240,-1065,1359,2429,3045,2927,4467,8255,8119,7279,3007,2031,2706,-224,-2652,359,1700,4615,4541,7623,6328,5766,3991,2512,3212,-1380,1244,1713,2652,3620,4536,8538,6076,6054,4067,1733,2311,-214,864,1124,2710,5053,5063,6059,5927,5299,3677,3871,1511,-783,1327,2861,3479,4391,3874,7359,6216,5637,3481,1995,3252,3390,2243,887,1976,2318,3199,7209,5659,6518,4189,2125,431,-1379,1616,1851,3740,3871,3569,7577,6807,5436,4403,2735,1967,-446,1081,1543,2779,3622,4737,7095,6010,5037,3109,1801,1827,254,1521,2403,3769,5318,4468,6025,5269,6288,4778,2290,2141,2016,988,1179,3013,2846,4995,6576,5569,4615,1561,2067,3347,277,1765,2727,3401,4785,5082,4187,4137,5173,4119,1973,3615,-430,3436,3147,4695,1669,1801,5670,5275,5146,4026,1474,2789,335,2479,1613,4554,5079,5142,5516,4190,4583,3609,2585,2421,2149,1228,879,3111,5121,5485,5559,5778,5833,2865,1259,343,-9,945,989,1739,3153,5165,6962,6207,6171,4029,3198,2452,-545,1477,1616,3542,4433,2753,4110,4751,5224,4040,3031,3215,55,1895,1323,2579,3170,5052,5549,4670,7065,4583,2354,1917,1247,889,1821,3849,4498,4932,5115,5027,5229,4231,2000,2395,408,1175,1295,2683,4685,5795,6241,5869,5903,3850,2183,2115,820,2147,1799,4206,3493,3125,4248,5345,5077,3311,2641,2271,208,1355,1861,4359,4134,4382,7575,6545,4393,2342,2070,2109,1105,1949,1781,3151,4203,4739,7863,5515,4732,2703,1177,1860,793,2135,2017,3762,3769,4570,6431,4796,5185,4291,3633,3179,-1413,1618,1139,3185,3983,3835,5015,4758,4443,4887,2299,2743,517,1705,653,3331,5198,5812,6910,4899,5249,4684,2431,1395,693,1108,1129,3697,3808,4711,5004,5931,5912,3821,2015,1350,1687,1936,807,3727,4831,4186,5523,5610,5758,3078,1737,1958,1143,3079,2825,2387,1161,4550,6848,5262,5128,5013,1385,971,733,2611,1387,2969,3375,4509,5615,4965,5186,3257,3400,4801,2325,1504,287,2585,4516,4532,6531,4267,5146,3495,2094,1799,396,1811,1691,3671,4076,4613,6308,5379,4853,3425,2359,1886,1749,1923,1555,3025,3365,3437,4086,5221,6175,4342,3105,1549,364,2738,2450,3715,4151,4216,6825,5238,4829,3110
7953,8031,9698,9085,8904,8359,8019,10370,6264,7173,7361,9257,9047,8251,9927,7870,9197,8257,7393,9405,7035,5737,7377,7741,9175,10805,8777,7935,9727,10259,8555,6599,5105,5191,7627,9428,8595,9013,10366,8357,8785,10163,8243,8299,7329,6374,6006,8588,8520,9113,10041,9791,10842,8859,7548,9067,6488,4984,5425,6655,7484,8037,10332,8263,8652,8000,6823,7460,6795,5983,6269,7532,7639,7639,11079,10226,8408,8066,8035,8564,8471,8385,6167,8055,9252,8241,9895,9175,8633,7323,6743,8599,7252,8298,7563,7621,8376,9195,10555,8153,7461,6963,6453,6064,8080,8729,8702,8547,8653,8591,9667,9597,9623,6225,6601,6465,6263,8279,9169,8503,6772,8501,11083,11131,9921,7310,7149,8171,6659,4078,5719,6391,7751,8315,10682,9381,9243,7817,7540,9107,5893,7229,7563,6479,7696,8318,11345,9097,9577,8437,7076,7876,6811,7037,6656,6705,8735,8958,8783,8592,8823,7759,9058,6767,6457,7927,8183,7983,8095,6879,9780,9553,9266,7639,7228,9815,12193,8913,6559,5999,5047,5267,9249,8653,9660,8376,7965,5988,5662,8183,8103,8316,7505,8279,10856,10222,8937,8567,7371,6975,6094,7383,7563,6787,7398,8799,10003,9867,7907,7339,7364,7059,6651,8189,8404,8524,8707,8645,9107,8640,9265,8961,8291,7501,8679,6815,6896,8449,7141,8801,9504,8539,7337,6131,6815,9239,6878,7486,9333,8108,7999,8607,7294,7125,9295,8180,7851,8834,6439,8136,7537,9751,7289,6177,7832,8091,9083,8641,7432,8181,6589,7633,6715,9218,9137,9145,8423,8036,8695,7725,6418,6889,7119,7756,8573,8714,10551,9623,8188,8887,8983,7751,6527,5396,5951,5668,6462,7329,7110,8944,10595,10191,10265,8932,8069,7082,5295,6904,7145,8663,8963,7138,7161,8519,8408,8183,7586,8375,5719,7569,7329,7917,7095,8919,9188,9390,10252,8537,7304,6679,7112,6379,7393,8417,7762,8773,9556,9077,9288,8420,6644,6904,6665,7242,6867,7359,8932,9486,8937,9719,8964,7591,7173,7287,7359,8223,7693,8670,8087,7127,7858,8670,8416,7551,7403,7447,6491,6938,7721,8768,8809,8253,10885,9589,7543,7219,7079,7823,7951,6605,7590,7511,8219,9124,9946,9014,8179,7493,6021,6729,7037,7777,7538,8790,8211,8163,9912,8385,8933,8769,9127,8901,5343,7267,6458,7244,8050,7371,8051,8227,8965,9463,7360,7753,6507,6941,6076,8456,8979,8543,9775,8603,7801,8801,7702,7318,7394,6497,6812,8751,7832,8517,8343,9431,9154,8675,7173,6019,6694,7507,7047,8173,9043,7696,8711,8810,8689,7039,7244,8187,8277,7983,9945,8153,4954,7160,9536,9228,7784,8755,6530,6571,7363,8568,7095,7677,7850,8557,9290,8833,8494,7520,7856,9999,9030,7101,6526,6949,8798,8049,8849,8069,8783,8274,7181,7864,6244,6929,7107,8464,8807,9043,9389,8871,8447,8133,7457,7649,7697,7613,6701,7093,7831,7838,8087,8329,9094,8653,7579,7125,6706,7849,8312,8188,8616,8389,10359,9190,8636,7578
12910,11779,11769,12099,12072,12215,12976,15309,10736,10521,11103,12474,13143,13399,13803,11367,13322,11187,11223,13459,11783,10620,12637,12688,12517,14429,12367,11085,11734,14109,12567,10889,9931,10387,11475,12327,12183,14037,15040,12215,10595,13697,13516,14327,12415,11249,10655,12257,12557,13638,13171,12137,14031,10998,9835,12862,12924,10597,10283,11623,12727,11301,12468,10759,11860,11226,10607,12136,12657,10678,10920,11793,12261,11507,13328,12318,11828,12181,13282,13031,13783,13253,11015,12385,13174,12752,12289,12160,12061,11321,10373,12396,13157,13844,13185,12304,12058,11097,13216,11017,10649,11183,11343,11326,12682,13209,13819,13345,12835,12379,11945,11968,12506,10397,10927,10808,11044,13030,13539,12243,10922,12743,14243,14476,13479,12052,11239,11545,10343,9235,11325,11538,12266,13051,14115,13195,11798,10775,10556,12362,10378,13658,13724,11748,11435,12269,14004,12287,13041,12293,11307,11499,12064,12263,12198,11717,13099,11565,11689,12171,12479,11791,12789,11550,11390,12785,12499,12905,13104,11029,13527,12531,11696,10795,12514,13177,14503,13743,13443,11417,10602,10339,11219,11537,12853,12167,12395,10627,12029,13568,13044,12119,10587,12014,13567,13005,11649,12935,11501,11779,12190,12706,13303,11915,11136,12361,12731,12261,10487,10935,12453,11971,11757,12526,13773,12497,12840,12406,11658,12115,11517,12803,12303,12477,14503,12237,11916,12222,11263,11966,12869,11197,9796,11187,11807,13510,11248,12391,14761,12569,12138,11291,10531,9249,10662,11615,13399,14392,12952,14149,13332,14521,12379,10137,9311,10393,11031,12163,12679,12888,12414,12429,11607,13583,12844,13024,11217,10823,10810,11842,10519,13543,13299,13361,12880,13059,13239,11599,11082,12321,11471,11480,11111,10421,13085,12081,12727,11529,10523,12259,13399,13163,13287,12793,13051,11801,10039,12233,12457,13658,12715,10693,10346,11317,11035,11762,12197,13279,11274,12289,12873,12671,10648,11859,11236,12975,11024,12043,12327,12130,13129,11862,12879,12943,10944,12343,12584,12200,12227,11979,11335,11301,11587,11803,12285,11830,13450,13321,12465,12002,11695,11116,11315,11786,12646,13594,12212,12851,11420,10806,10768,12070,12069,11643,11624,12083,11639,12131,12904,13441,12777,12308,13478,12683,10487,10581,11175,12199,12927,11747,12517,12505,12340,12959,13200,12139,11437,11376,10777,11957,11996,12175,12350,12969,12463,12235,12839,11287,11719,12946,13319,13235,10391,12200,12173,12180,11978,11417,11510,11433,11653,12343,11692,12036,11105,12225,11561,13122,12939,12947,13234,11961,10984,12017,12536,12147,12273,11867,12343,13639,12190,11747,11489,12106,12021,11877,11271,10926,12111,12744,12435,12679,13101,12075,11971,12406,11947,10582,10816,12799,12904,11861,13153,12148,11416,12208,13212,13377,12762,12023,10315,10791,11189,11983,11280,11939,12251,13421,13007,12686,12176,11403,11783,13886,12774,12671,12247,11143,12647,11756,12947,12103,12195,12573,11397,11732,10927,11859,11443,12229,12823,12386,12885,12333,12300,11667,11565,12214,12715,11924,11351,11308,11504,11913,12517,12646,12674,12621,11528,11359,11501,12531,13101,12887,12386,11821,13631,12713,11781,11668
3130,2425,3942,3039,3332,3099,2373,2509,2535,1764,2395,1723,2905,3005,4270,3247,3203,1887,1609,2344,2125,2151,2413,2127,2979,3383,3113,2653,3153,3019,2332,2203,1994,2637,1990,1914,2403,3761,3685,2617,3255,2776,1841,2545,2090,2253,1879,2447,2514,3247,3724,3321,2350,1694,1693,2146,2446,2300,2421,2373,2442,2333,2993,3173,3575,2681,2171,2315,2144,2065,1677,2633,2509,1894,3575,3327,3643,2761,1786,2525,2335,2465,1662,1815,2793,3001,4107,3195,2206,2428,2536,1973,1948,2450,2559,2963,2565,2123,3716,3473,2461,1995,2235,2133,2181,2959,2125,1716,2152,2631,3230,3004,2903,2443,2637,2421,2157,1931,1751,3303,2813,2211,3391,3790,3479,1841,1657,2669,2095,2367,2256,2101,3433,2801,3479,3505,2825,3044,1551,1647,2235,1704,2085,2121,2987,2998,3917,3755,3127,2008,2629,1759,1853,1969,2674,2903,1495,2754,3257,3809,2769,2428,2435,2849,1700,1887,1755,2662,2063,2551,3751,2781,2947,2441,2477,2687,1687,1165,2038,1759,2567,2253,3589,3147,3577,2839,2489,3167,1386,1281,2739,2503,2690,3139,3827,3199,2773,2819,2191,2203,1799,1225,2196,2724,3345,4259,3930,3553,3731,2137,1710,1715,1811,1651,1550,1903,3392,3667,3997,3571,2686,2607,2078,1859,1730,2319,2202,2025,3331,3070,4516,3615,3062,2671,1705,1775,1215,1976,1505,2479,2797,3012,3858,4148,3540,2286,1812,2519,2127,1402,451,2690,3094,3586,4029,3663,3398,2666,2156,2302,1328,2500,1883,1630,2253,3245,4120,3879,3691,2791,2315,1896,1701,1727,362,2726,3031,3503,4001,3181,2391,2989,2111,2883,1429,1533,1082,2925,2855,2785,4266,3229,2916,2634,2899,2133,1199,2147,1785,2770,2339,2845,4120,3581,3675,2672,1579,2119,1708,2507,1917,2399,2793,3595,3659,3255,3655,2397,2327,1870,1345,2123,2544,2065,2633,2780,3576,3710,3632,2503,1849,2371,1972,1351,1751,2243,2545,2887,3573,3536,3356,2990,1857,2151,1030,1739,2024,2178,3105,2857,3967,3054,3449,2440,2019,2311,887,1772,1442,2756,2778,2679,4129,3537,3747,2871,2127,2355,1925,2135,2150,2526,2625,2030,3497,3405,3108,2531,2600,2228,1182,1933,2139,2261,2546,2635,3803,3625,3563,2583,2223,2069,1388,2571,1671,2187,2735,3295,3756,3643,3212,2393,1897,1403,1697,2518,2025,2625,3153,2761,3348,3475,3928,2688,1378,2333,1744,1665,1497,2301,3023,2936,3091,3739,2845,2376,2068,2343,1655,2035,1791,2409,3111,3463,3326,2437,3389,2624,2055,2010,1655,2406,2023,2775,1729,2493,3175,2764,2860,2311,2108,2223,1833,2303,1864,2443,3431,3332,3785,2658,3224,2535,2658,1958,1350,1815,1709,2100,3031,3226,3117,3530,3131,2715,1937,2195,1455,1992,1577,2403,2817,3277,3165,3054,3288,2722,2525,2255,1943,1908,2125,2334,2283,2759,3359,3021,2895,2619,2174,2463,1977,1921,1925,2351,2497,2955,3019,3802,3452,2462
